#      energy (eV)      DOS (tetra.)      DOS (gauss.)
    -20.0000000000      0.0000000000      0.0040041254
    -19.9850000000      0.0000000000      0.0047853797
    -19.9700000000      0.0000000000      0.0056886946
    -19.9550000000      0.0000000000      0.0067268123
    -19.9400000000      0.0000000000      0.0079126238
    -19.9250000000      0.0000000000      0.0092589421
    -19.9100000000      0.0000000000      0.0107782466
    -19.8950000000      0.0000000000      0.0124824037
    -19.8800000000      0.0000000000      0.0143823683
    -19.8650000000      0.0000000000      0.0164878743
    -19.8500000000      0.0000000000      0.0188071224
    -19.8350000000      0.0000000000      0.0213464749
    -19.8200000000      0.0000000000      0.0241101666
    -19.8050000000      0.0000000000      0.0271000433
    -19.7900000000      0.0000000000      0.0303153364
    -19.7750000000      0.0000000000      0.0337524830
    -19.7600000000      0.0000000000      0.0374049990
    -19.7450000000      0.0000000000      0.0412634118
    -19.7300000000      0.0000000000      0.0453152560
    -19.7150000000      0.0000000000      0.0495451336
    -19.7000000000      0.0000000000      0.0539348401
    -19.6850000000      0.0000000000      0.0584635515
    -19.6700000000      0.0000000000      0.0631080702
    -19.6550000000      0.0000000000      0.0678431219
    -19.6400000000      0.0000000000      0.0726416976
    -19.6250000000      0.0102151725      0.0774754312
    -19.6100000000      0.0480306235      0.0823150068
    -19.5950000000      0.0858460746      0.0871305851
    -19.5800000000      0.1236615256      0.0918922442
    -19.5650000000      0.1614769767      0.0965704259
    -19.5500000000      0.1992924278      0.1011363843
    -19.5350000000      0.2371078788      0.1055626292
    -19.5200000000      0.1329206847      0.1098233635
    -19.5050000000      0.1363171189      0.1138949072
    -19.4900000000      0.1397135532      0.1177561060
    -19.4750000000      0.1431099874      0.1213887193
    -19.4600000000      0.1465064217      0.1247777796
    -19.4450000000      0.1499028559      0.1279119170
    -19.4300000000      0.1532992902      0.1307836381
    -19.4150000000      0.1566957244      0.1333895473
    -19.4000000000      0.1600921587      0.1357304975
    -19.3850000000      0.1634885929      0.1378116564
    -19.3700000000      0.1668850272      0.1396424726
    -19.3550000000      0.1702814614      0.1412365311
    -19.3400000000      0.1669688917      0.1426112838
    -19.3250000000      0.1622674735      0.1437876522
    -19.3100000000      0.1575660553      0.1447894967
    -19.2950000000      0.1528646371      0.1456429597
    -19.2800000000      0.1481632189      0.1463756918
    -19.2650000000      0.1434618007      0.1470159812
    -19.2500000000      0.1420500227      0.1475918124
    -19.2350000000      0.1433001462      0.1481298859
    -19.2200000000      0.1445502696      0.1486546391
    -19.2050000000      0.1458003931      0.1491873100
    -19.1900000000      0.1470505166      0.1497450880
    -19.1750000000      0.1483006401      0.1503403958
    -19.1600000000      0.1495507635      0.1509803431
    -19.1450000000      0.1508008870      0.1516663876
    -19.1300000000      0.1520510105      0.1523942293
    -19.1150000000      0.1533011340      0.1531539571
    -19.1000000000      0.1545512574      0.1539304516
    -19.0850000000      0.1558013809      0.1547040386
    -19.0700000000      0.1570515044      0.1554513748
    -19.0550000000      0.1583016279      0.1561465329
    -19.0400000000      0.1595517513      0.1567622460
    -19.0250000000      0.1608018748      0.1572712604
    -19.0100000000      0.1620519983      0.1576477379
    -18.9950000000      0.1633021217      0.1578686485
    -18.9800000000      0.1645522452      0.1579150892
    -18.9650000000      0.1524766848      0.1577734700
    -18.9500000000      0.1521624399      0.1574365105
    -18.9350000000      0.1518481949      0.1569039979
    -18.9200000000      0.1515339500      0.1561832700
    -18.9050000000      0.1512197050      0.1552893915
    -18.8900000000      0.1509054601      0.1542450123
    -18.8750000000      0.1505912151      0.1530799016
    -18.8600000000      0.1502769702      0.1518301712
    -18.8450000000      0.1499627252      0.1505372096
    -18.8300000000      0.1496484803      0.1492463633
    -18.8150000000      0.1493342353      0.1480054100
    -18.8000000000      0.1490199904      0.1468628784
    -18.7850000000      0.1495183206      0.1458662767
    -18.7700000000      0.1501325657      0.1450602951
    -18.7550000000      0.1507468108      0.1444850500
    -18.7400000000      0.1513610559      0.1441744406
    -18.7250000000      0.1519753010      0.1441546797
    -18.7100000000      0.1525895461      0.1444430634
    -18.6950000000      0.1532037912      0.1450470286
    -18.6800000000      0.1538180362      0.1459635446
    -18.6650000000      0.1544322813      0.1471788678
    -18.6500000000      0.1550465264      0.1486686799
    -18.6350000000      0.1556607715      0.1503986117
    -18.6200000000      0.1562750166      0.1523251416
    -18.6050000000      0.1568892617      0.1543968435
    -18.5900000000      0.1575035068      0.1565559416
    -18.5750000000      0.1581177519      0.1587401200
    -18.5600000000      0.1587319970      0.1608845211
    -18.5450000000      0.1593462420      0.1629238602
    -18.5300000000      0.1599604871      0.1647945761
    -18.5150000000      0.1600853449      0.1664369390
    -18.5000000000      0.1586636110      0.1677970340
    -18.4850000000      0.1572418770      0.1688285476
    -18.4700000000      0.1558201431      0.1694942916
    -18.4550000000      0.1543984092      0.1697674100
    -18.4400000000      0.1529766753      0.1696322293
    -18.4250000000      0.1516687717      0.1690847284
    -18.4100000000      0.1518560547      0.1681326196
    -18.3950000000      0.1520433376      0.1667950491
    -18.3800000000      0.1522306205      0.1651019426
    -18.3650000000      0.1524179035      0.1630930301
    -18.3500000000      0.1526051864      0.1608166020
    -18.3350000000      0.1527924694      0.1583280502
    -18.3200000000      0.1529797523      0.1556882561
    -18.3050000000      0.1531670352      0.1529618889
    -18.2900000000      0.1533543182      0.1502156739
    -18.2750000000      0.1535416011      0.1475166872
    -18.2600000000      0.1537288841      0.1449307256
    -18.2450000000      0.1539161670      0.1425207928
    -18.2300000000      0.1541034500      0.1403457323
    -18.2150000000      0.1542907329      0.1384590274
    -18.2000000000      0.1544780158      0.1369077820
    -18.1850000000      0.1546652988      0.1357318834
    -18.1700000000      0.1548525817      0.1349633465
    -18.1550000000      0.1550398647      0.1346258299
    -18.1400000000      0.1554058009      0.1347343129
    -18.1250000000      0.1558021788      0.1352949229
    -18.1100000000      0.1561985567      0.1363048999
    -18.0950000000      0.1565949346      0.1377526878
    -18.0800000000      0.1569913125      0.1396181467
    -18.0650000000      0.1573876904      0.1418728786
    -18.0500000000      0.1577840682      0.1444806658
    -18.0350000000      0.1581804461      0.1473980203
    -18.0200000000      0.1585768240      0.1505748459
    -18.0050000000      0.1589732019      0.1539552123
    -17.9900000000      0.1593695798      0.1574782429
    -17.9750000000      0.1597659577      0.1610791108
    -17.9600000000      0.1601623356      0.1646901400
    -17.9450000000      0.1605587135      0.1682420006
    -17.9300000000      0.1609550914      0.1716649833
    -17.9150000000      0.1613514693      0.1748903350
    -17.9000000000      0.1617478472      0.1778516320
    -17.8850000000      0.1621442250      0.1804861618
    -17.8700000000      0.1581625867      0.1827362847
    -17.8550000000      0.1579484599      0.1845507397
    -17.8400000000      0.1577343331      0.1858858619
    -17.8250000000      0.1575202063      0.1867066764
    -17.8100000000      0.1573060796      0.1869878347
    -17.7950000000      0.1570919528      0.1867143655
    -17.7800000000      0.1568778260      0.1858822105
    -17.7650000000      0.1566636992      0.1844985263
    -17.7500000000      0.1564495724      0.1825817357
    -17.7350000000      0.1562354456      0.1801613192
    -17.7200000000      0.1560213188      0.1772773464
    -17.7050000000      0.1558071921      0.1739797533
    -17.6900000000      0.1559112093      0.1703273788
    -17.6750000000      0.1560996962      0.1663867825
    -17.6600000000      0.1562881832      0.1622308720
    -17.6450000000      0.1564766701      0.1579373743
    -17.6300000000      0.1566651570      0.1535871906
    -17.6150000000      0.1568536439      0.1492626774
    -17.6000000000      0.1570421308      0.1450459009
    -17.5850000000      0.1572306177      0.1410169084
    -17.5700000000      0.1574191046      0.1372520634
    -17.5550000000      0.1576075915      0.1338224856
    -17.5400000000      0.1577960784      0.1307926339
    -17.5250000000      0.1579845653      0.1282190654
    -17.5100000000      0.1581730522      0.1261493944
    -17.4950000000      0.1583615391      0.1246214729
    -17.4800000000      0.1585500260      0.1236628013
    -17.4650000000      0.1587385129      0.1232901756
    -17.4500000000      0.1589269998      0.1235095672
    -17.4350000000      0.1591154867      0.1243162274
    -17.4200000000      0.1593039736      0.1256950029
    -17.4050000000      0.1594924605      0.1276208456
    -17.3900000000      0.1596809474      0.1300594957
    -17.3750000000      0.1598694343      0.1329683178
    -17.3600000000      0.1600579212      0.1362972662
    -17.3450000000      0.1602464081      0.1399899584
    -17.3300000000      0.1605166054      0.1439848339
    -17.3150000000      0.1607929361      0.1482163754
    -17.3000000000      0.1610692668      0.1526163735
    -17.2850000000      0.1613455976      0.1571152100
    -17.2700000000      0.1616219283      0.1616431405
    -17.2550000000      0.1618982590      0.1661315512
    -17.2400000000      0.1621745897      0.1705141685
    -17.2250000000      0.1624509204      0.1747281940
    -17.2100000000      0.1627272512      0.1787153420
    -17.1950000000      0.1630035819      0.1824227524
    -17.1800000000      0.1632799126      0.1858037557
    -17.1650000000      0.1631897395      0.1888184684
    -17.1500000000      0.1625395252      0.1914341994
    -17.1350000000      0.1618893109      0.1936256565
    -17.1200000000      0.1612390967      0.1953749462
    -17.1050000000      0.1605888824      0.1966713684
    -17.0900000000      0.1599386681      0.1975110199
    -17.0750000000      0.1594865874      0.1978962244
    -17.0600000000      0.1594749725      0.1978348211
    -17.0450000000      0.1594633576      0.1973393485
    -17.0300000000      0.1594517427      0.1964261680
    -17.0150000000      0.1594401278      0.1951145762
    -17.0000000000      0.1594285129      0.1934259547
    -16.9850000000      0.1594168980      0.1913830068
    -16.9700000000      0.1594052831      0.1890091238
    -16.9550000000      0.1593936682      0.1863279169
    -16.9400000000      0.1593820532      0.1833629401
    -16.9250000000      0.1593704383      0.1801376173
    -16.9100000000      0.1593588234      0.1766753721
    -16.8950000000      0.1593472085      0.1729999466
    -16.8800000000      0.1593355936      0.1691358804
    -16.8650000000      0.1593239787      0.1651091083
    -16.8500000000      0.1593123638      0.1609476292
    -16.8350000000      0.1593007489      0.1566821858
    -16.8200000000      0.1592891340      0.1523468979
    -16.8050000000      0.1593939767      0.1479797866
    -16.7900000000      0.1595612727      0.1436231357
    -16.7750000000      0.1597285687      0.1393236410
    -16.7600000000      0.1598958647      0.1351323103
    -16.7450000000      0.1600631608      0.1311040902
    -16.7300000000      0.1602304568      0.1272972097
    -16.7150000000      0.1603977528      0.1237722465
    -16.7000000000      0.1605650488      0.1205909378
    -16.6850000000      0.1607323448      0.1178147717
    -16.6700000000      0.1608996408      0.1155034057
    -16.6550000000      0.1610669368      0.1137129730
    -16.6400000000      0.1612342328      0.1124943407
    -16.6250000000      0.1614015288      0.1118913902
    -16.6100000000      0.1615688248      0.1119393907
    -16.5950000000      0.1617361208      0.1126635323
    -16.5800000000      0.1619034168      0.1140776816
    -16.5650000000      0.1620707128      0.1161834147
    -16.5500000000      0.1622380088      0.1189693675
    -16.5350000000      0.1624053048      0.1224109382
    -16.5200000000      0.1625726008      0.1264703559
    -16.5050000000      0.1627398968      0.1310971218
    -16.4900000000      0.1629071928      0.1362288108
    -16.4750000000      0.1630744888      0.1417922128
    -16.4600000000      0.1632417848      0.1477047782
    -16.4450000000      0.1634090808      0.1538763231
    -16.4300000000      0.1635763768      0.1602109439
    -16.4150000000      0.1637436728      0.1666090809
    -16.4000000000      0.1639109688      0.1729696726
    -16.3850000000      0.1640782648      0.1791923366
    -16.3700000000      0.1642653684      0.1851795182
    -16.3550000000      0.1644903803      0.1908385473
    -16.3400000000      0.1647153921      0.1960835531
    -16.3250000000      0.1649404039      0.2008371893
    -16.3100000000      0.1651654157      0.2050321314
    -16.2950000000      0.1653904275      0.2086123144
    -16.2800000000      0.1634850643      0.2115338892
    -16.2650000000      0.1634145673      0.2137658812
    -16.2500000000      0.1633440702      0.2152905447
    -16.2350000000      0.1632735731      0.2161034114
    -16.2200000000      0.1632030760      0.2162130392
    -16.2050000000      0.1631325790      0.2156404734
    -16.1900000000      0.1630620819      0.2144184340
    -16.1750000000      0.1629915848      0.2125902539
    -16.1600000000      0.1629210878      0.2102085894
    -16.1450000000      0.1628505907      0.2073339352
    -16.1300000000      0.1627800936      0.2040329762
    -16.1150000000      0.1627095966      0.2003768135
    -16.1000000000      0.1628075782      0.1964391068
    -16.0850000000      0.1629403129      0.1922941787
    -16.0700000000      0.1630730477      0.1880151287
    -16.0550000000      0.1632057824      0.1836720104
    -16.0400000000      0.1633385171      0.1793301243
    -16.0250000000      0.1634712518      0.1750484788
    -16.0100000000      0.1636039866      0.1708784740
    -15.9950000000      0.1637367213      0.1668628541
    -15.9800000000      0.1638694560      0.1630349712
    -15.9650000000      0.1640021908      0.1594183954
    -15.9500000000      0.1641349255      0.1560268918
    -15.9350000000      0.1642676602      0.1528647760
    -15.9200000000      0.1644003950      0.1499276425
    -15.9050000000      0.1645331297      0.1472034462
    -15.8900000000      0.1646658644      0.1446739005
    -15.8750000000      0.1647985991      0.1423161423
    -15.8600000000      0.1649313339      0.1401045970
    -15.8450000000      0.1650640686      0.1380129691
    -15.8300000000      0.1651968033      0.1360162730
    -15.8150000000      0.1653295381      0.1340928143
    -15.8000000000      0.1654622728      0.1322260313
    -15.7850000000      0.1655950075      0.1304061103
    -15.7700000000      0.1657320747      0.1286312950
    -15.7550000000      0.1659658490      0.1269088217
    -15.7400000000      0.1661996232      0.1252554298
    -15.7250000000      0.1664333974      0.1236974092
    -15.7100000000      0.1666671717      0.1222701730
    -15.6950000000      0.1669009459      0.1210173586
    -15.6800000000      0.1671347201      0.1199894845
    -15.6650000000      0.1673684944      0.1192422095
    -15.6500000000      0.1676022686      0.1188342573
    -15.6350000000      0.1678360429      0.1188250887
    -15.6200000000      0.1680698171      0.1192724100
    -15.6050000000      0.1683035913      0.1202296209
    -15.5900000000      0.1685373656      0.1217433037
    -15.5750000000      0.1687711398      0.1238508590
    -15.5600000000      0.1690049140      0.1265783862
    -15.5450000000      0.1692386883      0.1299388983
    -15.5300000000      0.1694724625      0.1339309499
    -15.5150000000      0.1697062367      0.1385377383
    -15.5000000000      0.1699400110      0.1437267204
    -15.4850000000      0.1701737852      0.1494497690
    -15.4700000000      0.1704075594      0.1556438667
    -15.4550000000      0.1706413337      0.1622323182
    -15.4400000000      0.1708751079      0.1691264383
    -15.4250000000      0.1711088821      0.1762276540
    -15.4100000000      0.1713426564      0.1834299444
    -15.3950000000      0.1715764306      0.1906225261
    -15.3800000000      0.1718102048      0.1976926852
    -15.3650000000      0.1720439791      0.2045286518
    -15.3500000000      0.1722777533      0.2110224111
    -15.3350000000      0.1724050673      0.2170723537
    -15.3200000000      0.1724373437      0.2225856734
    -15.3050000000      0.1724696201      0.2274804363
    -15.2900000000      0.1725018966      0.2316872617
    -15.2750000000      0.1725341730      0.2351505730
    -15.2600000000      0.1727531211      0.2378293980
    -15.2450000000      0.1732467305      0.2396977196
    -15.2300000000      0.1737707422      0.2407443944
    -15.2150000000      0.1742947540      0.2409726775
    -15.2000000000      0.1748187657      0.2403994030
    -15.1850000000      0.1753427775      0.2390538827
    -15.1700000000      0.1758667892      0.2369765899
    -15.1550000000      0.1763908010      0.2342176980
    -15.1400000000      0.1769148127      0.2308355403
    -15.1250000000      0.1774388245      0.2268950524
    -15.1100000000      0.1779628362      0.2224662477
    -15.0950000000      0.1784868480      0.2176227659
    -15.0800000000      0.1790108597      0.2124405228
    -15.0650000000      0.1795348715      0.2069964737
    -15.0500000000      0.1800588832      0.2013674958
    -15.0350000000      0.1805828950      0.1956293828
    -15.0200000000      0.1811069067      0.1898559368
    -15.0050000000      0.1822502295      0.1841181439
    -14.9900000000      0.1834345711      0.1784834128
    -14.9750000000      0.1846189128      0.1730148644
    -14.9600000000      0.1858032545      0.1677706626
    -14.9450000000      0.1869875962      0.1628033837
    -14.9300000000      0.1881719379      0.1581594310
    -14.9150000000      0.1893562795      0.1538785106
    -14.9000000000      0.1905406212      0.1499931883
    -14.8850000000      0.1917249629      0.1465285576
    -14.8700000000      0.1929093046      0.1435020481
    -14.8550000000      0.1940936462      0.1409234056
    -14.8400000000      0.1952779879      0.1387948703
    -14.8250000000      0.1964623296      0.1371115739
    -14.8100000000      0.1976466713      0.1358621648
    -14.7950000000      0.1988310130      0.1350296594
    -14.7800000000      0.2000153546      0.1345925029
    -14.7650000000      0.2011996963      0.1345258086
    -14.7500000000      0.2023840380      0.1348027308
    -14.7350000000      0.2035683797      0.1353959127
    -14.7200000000      0.2047527213      0.1362789436
    -14.7050000000      0.2059370630      0.1374277501
    -14.6900000000      0.2071214047      0.1388218470
    -14.6750000000      0.2083057464      0.1404453727
    -14.6600000000      0.2094900881      0.1422878454
    -14.6450000000      0.2106744297      0.1443445827
    -14.6300000000      0.3329968223      0.1466167470
    -14.6150000000      0.3229785955      0.1491109938
    -14.6000000000      0.3129603687      0.1518387229
    -14.5850000000      0.3029421419      0.1548149528
