#      energy (eV)      DOS (tetra.)      DOS (gauss.)
    -19.9998456173      0.0000000000      0.0040041564
    -19.9848457331      0.0000000000      0.0047854167
    -19.9698458489      0.0000000000      0.0056887385
    -19.9548459647      0.0000000000      0.0067268643
    -19.9398460805      0.0000000000      0.0079126850
    -19.9248461963      0.0000000000      0.0092590137
    -19.9098463121      0.0000000000      0.0107783299
    -19.8948464279      0.0000000000      0.0124825002
    -19.8798465436      0.0000000000      0.0143824795
    -19.8648466594      0.0000000000      0.0164880018
    -19.8498467752      0.0000000000      0.0188072679
    -19.8348468910      0.0000000000      0.0213466399
    -19.8198470068      0.0000000000      0.0241103530
    -19.8048471226      0.0000000000      0.0271002528
    -19.7898472384      0.0000000000      0.0303155708
    -19.7748473541      0.0000000000      0.0337527439
    -19.7598474699      0.0000000000      0.0374052881
    -19.7448475857      0.0000000000      0.0412637308
    -19.7298477015      0.0000000000      0.0453156063
    -19.7148478173      0.0000000000      0.0495455166
    -19.6998479331      0.0000000000      0.0539352570
    -19.6848480489      0.0000000000      0.0584640034
    -19.6698481647      0.0000000000      0.0631085580
    -19.6548482804      0.0000000000      0.0678436464
    -19.6398483962      0.0000000000      0.0726422591
    -19.6248485120      0.0102152525      0.0774760301
    -19.6098486278      0.0480309954      0.0823156431
    -19.5948487436      0.0858467384      0.0871312586
    -19.5798488594      0.1236624814      0.0918929544
    -19.5648489752      0.1614782243      0.0965711724
    -19.5498490910      0.1992939673      0.1011371660
    -19.5348492067      0.2371097103      0.1055634451
    -19.5198493225      0.1329217108      0.1098242124
    -19.5048494383      0.1363181713      0.1138957874
    -19.4898495541      0.1397146318      0.1177570161
    -19.4748496699      0.1431110922      0.1213896575
    -19.4598497857      0.1465075527      0.1247787439
    -19.4448499015      0.1499040132      0.1279129056
    -19.4298500173      0.1533004736      0.1307846489
    -19.4148501330      0.1566969341      0.1333905782
    -19.3998502488      0.1600933946      0.1357315465
    -19.3848503646      0.1634898550      0.1378127214
    -19.3698504804      0.1668863155      0.1396435518
    -19.3548505962      0.1702827760      0.1412376225
    -19.3398507120      0.1669701804      0.1426123859
    -19.3248508278      0.1622687260      0.1437887633
    -19.3098509435      0.1575672715      0.1447906156
    -19.2948510593      0.1528658170      0.1456440852
    -19.2798511751      0.1481643625      0.1463768229
    -19.2648512909      0.1434629080      0.1470171173
    -19.2498514067      0.1420511192      0.1475929530
    -19.2348515225      0.1433012524      0.1481310306
    -19.2198516383      0.1445513855      0.1486557879
    -19.2048517541      0.1458015186      0.1491884629
    -19.1898518698      0.1470516517      0.1497462452
    -19.1748519856      0.1483017849      0.1503415576
    -19.1598521014      0.1495519180      0.1509815099
    -19.1448522172      0.1508020511      0.1516675596
    -19.1298523330      0.1520521842      0.1523954070
    -19.1148524488      0.1533023174      0.1531551407
    -19.0998525646      0.1545524505      0.1539316411
    -19.0848526804      0.1558025836      0.1547052342
    -19.0698527961      0.1570527167      0.1554525761
    -19.0548529119      0.1583028499      0.1561477395
    -19.0398530277      0.1595529830      0.1567634575
    -19.0248531435      0.1608031161      0.1572724758
    -19.0098532593      0.1620532492      0.1576489562
    -18.9948533751      0.1633033823      0.1578698684
    -18.9798534909      0.1645535155      0.1579163095
    -18.9648536066      0.1524778618      0.1577746893
    -18.9498537224      0.1521636144      0.1574377271
    -18.9348538382      0.1518493670      0.1569052104
    -18.9198539540      0.1515351197      0.1561844769
    -18.9048540698      0.1512208723      0.1552905915
    -18.8898541856      0.1509066249      0.1542462042
    -18.8748543014      0.1505923775      0.1530810845
    -18.8598544172      0.1502781302      0.1518313444
    -18.8448545329      0.1499638828      0.1505383729
    -18.8298546487      0.1496496354      0.1492475166
    -18.8148547645      0.1493353880      0.1480065537
    -18.7998548803      0.1490211407      0.1468640133
    -18.7848549961      0.1495194748      0.1458674039
    -18.7698551119      0.1501337246      0.1450614160
    -18.7548552277      0.1507479745      0.1444861666
    -18.7398553435      0.1513622243      0.1441755547
    -18.7248554592      0.1519764741      0.1441557937
    -18.7098555750      0.1525907240      0.1444441796
    -18.6948556908      0.1532049738      0.1450481495
    -18.6798558066      0.1538192236      0.1459646726
    -18.6648559224      0.1544334734      0.1471800052
    -18.6498560382      0.1550477233      0.1486698288
    -18.6348561540      0.1556619731      0.1503997740
    -18.6198562697      0.1562762229      0.1523263188
    -18.6048563855      0.1568904728      0.1543980367
    -18.5898565013      0.1575047226      0.1565571515
    -18.5748566171      0.1581189724      0.1587413468
    -18.5598567329      0.1587332223      0.1608857645
    -18.5448568487      0.1593474721      0.1629251193
    -18.5298569645      0.1599617219      0.1647958496
    -18.5148570803      0.1600865806      0.1664382253
    -18.4998571960      0.1586648357      0.1677983308
    -18.4848573118      0.1572430908      0.1688298523
    -18.4698574276      0.1558213459      0.1694956015
    -18.4548575434      0.1543996010      0.1697687219
    -18.4398576592      0.1529778561      0.1696335402
    -18.4248577750      0.1516699425      0.1690860351
    -18.4098578908      0.1518572269      0.1681339188
    -18.3948580066      0.1520445113      0.1667963380
    -18.3798581223      0.1522317956      0.1651032184
    -18.3648582381      0.1524190800      0.1630942903
    -18.3498583539      0.1526063644      0.1608178447
    -18.3348584697      0.1527936488      0.1583292736
    -18.3198585855      0.1529809332      0.1556894591
    -18.3048587013      0.1531682176      0.1529630709
    -18.2898588171      0.1533555020      0.1502168347
    -18.2748589328      0.1535427864      0.1475178271
    -18.2598590486      0.1537300707      0.1449318455
    -18.2448591644      0.1539173551      0.1425218941
    -18.2298592802      0.1541046395      0.1403468168
    -18.2148593960      0.1542919239      0.1384600973
    -18.1998595118      0.1544792083      0.1369088399
    -18.1848596276      0.1546664927      0.1357329322
    -18.1698597434      0.1548537771      0.1349643895
    -18.1548598591      0.1550410615      0.1346268702
    -18.1398599749      0.1554070005      0.1347353541
    -18.1248600907      0.1558033815      0.1352959685
    -18.1098602065      0.1561997624      0.1363059532
    -18.0948603223      0.1565961434      0.1377537523
    -18.0798604381      0.1569925243      0.1396192257
    -18.0648605539      0.1573889053      0.1418739751
    -18.0498606697      0.1577852862      0.1444817824
    -18.0348607854      0.1581816672      0.1473991595
    -18.0198609012      0.1585780481      0.1505760096
    -18.0048610170      0.1589744291      0.1539564022
    -17.9898611328      0.1593708100      0.1574794600
    -17.9748612486      0.1597671910      0.1610803557
    -17.9598613644      0.1601635719      0.1646914128
    -17.9448614802      0.1605599529      0.1682433008
    -17.9298615959      0.1609563338      0.1716663100
    -17.9148617117      0.1613527148      0.1748916866
    -17.8998618275      0.1617490957      0.1778530065
    -17.8848619433      0.1621454767      0.1804875567
    -17.8698620591      0.1581638076      0.1827376969
    -17.8548621749      0.1579496791      0.1845521659
    -17.8398622907      0.1577355507      0.1858872984
    -17.8248624065      0.1575214223      0.1867081192
    -17.8098625222      0.1573072938      0.1869892797
    -17.7948626380      0.1570931654      0.1867158083
    -17.7798627538      0.1568790369      0.1858836469
    -17.7648628696      0.1566649085      0.1844999520
    -17.7498629854      0.1564507801      0.1825831466
    -17.7348631012      0.1562366516      0.1801627113
    -17.7198632170      0.1560225232      0.1772787162
    -17.7048633328      0.1558083948      0.1739810976
    -17.6898634485      0.1559124129      0.1703286949
    -17.6748635643      0.1561009012      0.1663880681
    -17.6598636801      0.1562893896      0.1622321255
    -17.6448637959      0.1564778779      0.1579385947
    -17.6298639117      0.1566663663      0.1535883773
    -17.6148640275      0.1568548546      0.1492638308
    -17.5998641433      0.1570433430      0.1450470217
    -17.5848642591      0.1572318314      0.1410179981
    -17.5698643748      0.1574203197      0.1372531240
    -17.5548644906      0.1576088081      0.1338235196
    -17.5398646064      0.1577972964      0.1307936446
    -17.5248647222      0.1579857848      0.1282200562
    -17.5098648380      0.1581742731      0.1261503692
    -17.4948649538      0.1583627615      0.1246224359
    -17.4798650696      0.1585512499      0.1236637569
    -17.4648651853      0.1587397382      0.1232911284
    -17.4498653011      0.1589282266      0.1235105217
    -17.4348654169      0.1591167149      0.1243171881
    -17.4198655327      0.1593052033      0.1256959743
    -17.4048656485      0.1594936916      0.1276218319
    -17.3898657643      0.1596821800      0.1300605009
    -17.3748658801      0.1598706684      0.1329693454
    -17.3598659959      0.1600591567      0.1362983195
    -17.3448661116      0.1602476451      0.1399910404
    -17.3298662274      0.1605178445      0.1439859467
    -17.3148663432      0.1607941773      0.1482175209
    -17.2998664590      0.1610705102      0.1526175530
    -17.2848665748      0.1613468430      0.1571164243
    -17.2698666906      0.1616231759      0.1616443897
    -17.2548668064      0.1618995087      0.1661328351
    -17.2398669222      0.1621758416      0.1705154863
    -17.2248670379      0.1624521744      0.1747295444
    -17.2098671537      0.1627285073      0.1787167232
    -17.1948672695      0.1630048402      0.1824241622
    -17.1798673853      0.1632811730      0.1858051917
    -17.1648675011      0.1631909991      0.1888199276
    -17.1498676169      0.1625407799      0.1914356788
    -17.1348677327      0.1618905606      0.1936271529
    -17.1198678484      0.1612403413      0.1953764560
    -17.1048679642      0.1605901220      0.1966728883
    -17.0898680800      0.1599399027      0.1975125462
    -17.0748681958      0.1594878185      0.1978977537
    -17.0598683116      0.1594762035      0.1978363499
    -17.0448684274      0.1594645885      0.1973408735
    -17.0298685432      0.1594529735      0.1964276859
    -17.0148686590      0.1594413585      0.1951160840
    -16.9998687747      0.1594297435      0.1934274494
    -16.9848688905      0.1594181285      0.1913844857
    -16.9698690063      0.1594065135      0.1890105843
    -16.9548691221      0.1593948985      0.1863293567
    -16.9398692379      0.1593832835      0.1833643570
    -16.9248693537      0.1593716685      0.1801390092
    -16.9098694695      0.1593600535      0.1766767372
    -16.8948695853      0.1593484386      0.1730012834
    -16.8798697010      0.1593368236      0.1691371873
    -16.8648698168      0.1593252086      0.1651103841
    -16.8498699326      0.1593135936      0.1609488728
    -16.8348700484      0.1593019786      0.1566833965
    -16.8198701642      0.1592903636      0.1523480751
    -16.8048702800      0.1593952071      0.1479809300
    -16.7898703958      0.1595625044      0.1436242454
    -16.7748705115      0.1597298017      0.1393247175
    -16.7598706273      0.1598970990      0.1351333544
    -16.7448707431      0.1600643963      0.1311051033
    -16.7298708589      0.1602316936      0.1272981933
    -16.7148709747      0.1603989909      0.1237732029
    -16.6998710905      0.1605662882      0.1205918696
    -16.6848712063      0.1607335855      0.1178156821
    -16.6698713221      0.1609008828      0.1155042983
    -16.6548714378      0.1610681801      0.1137138517
    -16.6398715536      0.1612354774      0.1124952100
    -16.6248716694      0.1614027747      0.1118922549
    -16.6098717852      0.1615700720      0.1119402558
    -16.5948719010      0.1617373693      0.1126644029
    -16.5798720168      0.1619046666      0.1140785632
    -16.5648721326      0.1620719638      0.1161843126
    -16.5498722484      0.1622392611      0.1189702870
    -16.5348723641      0.1624065584      0.1224118843
    -16.5198724799      0.1625738557      0.1264713334
    -16.5048725957      0.1627411530      0.1310981350
    -16.4898727115      0.1629084503      0.1362298637
    -16.4748728273      0.1630757476      0.1417933088
    -16.4598729431      0.1632430449      0.1477059198
    -16.4448730589      0.1634103422      0.1538775125
    -16.4298731746      0.1635776395      0.1602121822
    -16.4148732904      0.1637449368      0.1666103686
    -16.3998734062      0.1639122341      0.1729710094
    -16.3848735220      0.1640795314      0.1791937216
    -16.3698736378      0.1642666364      0.1851809494
    -16.3548737536      0.1644916500      0.1908400222
    -16.3398738694      0.1647166635      0.1960850685
    -16.3248739852      0.1649416771      0.2008387415
    -16.3098741009      0.1651666906      0.2050337160
    -16.2948742167      0.1653917042      0.2086139266
    -16.2798743325      0.1634863263      0.2115355239
    -16.2648744483      0.1634158287      0.2137675332
    -16.2498745641      0.1633453311      0.2152922085
    -16.2348746799      0.1632748334      0.2161050814
    -16.2198747957      0.1632043358      0.2162147101
    -16.2048749115      0.1631338382      0.2156421398
    -16.1898750272      0.1630633406      0.2144200910
    -16.1748751430      0.1629928430      0.2125918967
    -16.1598752588      0.1629223454      0.2102102137
    -16.1448753746      0.1628518478      0.2073355373
    -16.1298754904      0.1627813501      0.2040345528
    -16.1148756062      0.1627108525      0.2003783618
    -16.0998757220      0.1628088349      0.1964406247
    -16.0848758377      0.1629415707      0.1922956646
    -16.0698759535      0.1630743064      0.1880165815
    -16.0548760693      0.1632070422      0.1836734297
    -16.0398761851      0.1633397780      0.1793315099
    -16.0248763009      0.1634725137      0.1750498314
    -16.0098764167      0.1636052495      0.1708797944
    -15.9948765325      0.1637379852      0.1668641435
    -15.9798766483      0.1638707210      0.1630362310
    -15.9648767640      0.1640034567      0.1594196273
    -15.9498768798      0.1641361925      0.1560280974
    -15.9348769956      0.1642689282      0.1528659572
    -15.9198771114      0.1644016640      0.1499288010
    -15.9048772272      0.1645343998      0.1472045836
    -15.8898773430      0.1646671355      0.1446750184
    -15.8748774588      0.1647998713      0.1423172420
    -15.8598775746      0.1649326070      0.1401056796
    -15.8448776903      0.1650653428      0.1380140355
    -15.8298778061      0.1651980785      0.1360173240
    -15.8148779219      0.1653308143      0.1340938505
    -15.7998780377      0.1654635500      0.1322270530
    -15.7848781535      0.1655962858      0.1304071180
    -15.7698782693      0.1657333541      0.1286322889
    -15.7548783851      0.1659671301      0.1269098024
    -15.7398785009      0.1662009061      0.1252563977
    -15.7248786166      0.1664346822      0.1236983651
    -15.7098787324      0.1666684582      0.1222711179
    -15.6948788482      0.1669022343      0.1210182938
    -15.6798789640      0.1671360103      0.1199904118
    -15.6648790798      0.1673697863      0.1192431309
    -15.6498791956      0.1676035624      0.1188351756
    -15.6348793114      0.1678373384      0.1188260070
    -15.6198794271      0.1680711145      0.1192733318
    -15.6048795429      0.1683048905      0.1202305500
    -15.5898796587      0.1685386665      0.1217442445
    -15.5748797745      0.1687724426      0.1238518162
    -15.5598798903      0.1690062186      0.1265793645
    -15.5448800061      0.1692399946      0.1299399025
    -15.5298801219      0.1694737707      0.1339319850
    -15.5148802377      0.1697075467      0.1385388090
    -15.4998803534      0.1699413228      0.1437278313
    -15.4848804692      0.1701750988      0.1494509241
    -15.4698805850      0.1704088748      0.1556450697
    -15.4548807008      0.1706426509      0.1622335721
    -15.4398808166      0.1708764269      0.1691277454
    -15.4248809324      0.1711102030      0.1762290160
    -15.4098810482      0.1713439790      0.1834313621
    -15.3948811640      0.1715777550      0.1906239994
    -15.3798812797      0.1718115311      0.1976942132
    -15.3648813955      0.1720453071      0.2045302326
    -15.3498815113      0.1722790832      0.2110240420
    -15.3348816271      0.1724063981      0.2170740314
    -15.3198817429      0.1724386748      0.2225873936
    -15.3048818587      0.1724709515      0.2274821943
    -15.2898819745      0.1725032281      0.2316890523
    -15.2748820902      0.1725355048      0.2351523903
    -15.2598822060      0.1727544547      0.2378312360
    -15.2448823218      0.1732480678      0.2396995720
    -15.2298824376      0.1737720836      0.2407462549
    -15.2148825534      0.1742960994      0.2409745397
    -15.1998826692      0.1748201152      0.2404012607
    -15.1848827850      0.1753441310      0.2390557300
    -15.1698829008      0.1758681468      0.2369784211
    -15.1548830165      0.1763921626      0.2342195079
    -15.1398831323      0.1769161784      0.2308373240
    -15.1248832481      0.1774401942      0.2268968057
    -15.1098833639      0.1779642100      0.2224679667
    -15.0948834797      0.1784882258      0.2176244475
    -15.0798835955      0.1790122416      0.2124421643
    -15.0648837113      0.1795362574      0.2069980731
    -15.0498838271      0.1800602731      0.2013690518
    -15.0348839428      0.1805842889      0.1956308943
    -15.0198840586      0.1811083047      0.1898574038
    -15.0048841744      0.1822516363      0.1841195666
    -14.9898842902      0.1834359871      0.1784847919
    -14.9748844060      0.1846203380      0.1730162012
    -14.9598845218      0.1858046888      0.1677719589
    -14.9448846376      0.1869890396      0.1628046416
    -14.9298847533      0.1881733904      0.1581606531
    -14.9148848691      0.1893577412      0.1538796996
    -14.8998849849      0.1905420921      0.1499943473
    -14.8848851007      0.1917264429      0.1465296898
    -14.8698852165      0.1929107937      0.1435031570
    -14.8548853323      0.1940951445      0.1409244945
    -14.8398854481      0.1952794953      0.1387959428
    -14.8248855639      0.1964638462      0.1371126334
    -14.8098856796      0.1976481970      0.1358632147
    -14.7948857954      0.1988325478      0.1350307028
    -14.7798859112      0.2000168986      0.1345935430
    -14.7648860270      0.2012012494      0.1345268482
    -14.7498861428      0.2023856003      0.1348037725
    -14.7348862586      0.2035699511      0.1353969590
    -14.7198863744      0.2047543019      0.1362799967
    -14.7048864902      0.2059386527      0.1374288122
    -14.6898866059      0.2071230035      0.1388229198
    -14.6748867217      0.2083073544      0.1404464581
    -14.6598868375      0.2094917052      0.1422889450
    -14.6448869533      0.2106760560      0.1443456983
    -14.6298870691      0.3329993924      0.1466178801
    -14.6148871849      0.3229810883      0.1491121462
    -14.5998873007      0.3129627842      0.1518398964
    -14.5848874164      0.3029444800      0.1548161492
